# z_relative(A)  P(0)  FreeEnergy(kJ/mol)  empty_counts  total_counts
-0.517247 1.000000 -0.000000 3786393.000000 3786393.000000
-0.417247 1.000000 -0.000000 3786393.000000 3786393.000000
-0.317247 1.000000 -0.000000 3786393.000000 3786393.000000
-0.217247 1.000000 -0.000000 3786393.000000 3786393.000000
-0.117247 1.000000 -0.000000 3786393.000000 3786393.000000
-0.017247 1.000000 -0.000000 3786393.000000 3786393.000000
0.082753 1.000000 -0.000000 3786393.000000 3786393.000000
0.182753 1.000000 -0.000000 3786393.000000 3786393.000000
0.282753 1.000000 -0.000000 3786393.000000 3786393.000000
0.382753 1.000000 -0.000000 3786393.000000 3786393.000000
0.482753 1.000000 -0.000000 3786393.000000 3786393.000000
0.582753 0.999991 0.000022 3786359.000000 3786393.000000
0.682753 0.999891 0.000271 3785979.000000 3786393.000000
0.782753 0.999505 0.001227 3784520.000000 3786393.000000
0.882753 0.998932 0.002648 3782351.000000 3786393.000000
0.982753 0.998447 0.003854 3780511.000000 3786393.000000
1.082753 0.997891 0.005233 3778408.000000 3786393.000000
1.182753 0.997317 0.006659 3776236.000000 3786393.000000
1.282753 0.996768 0.008025 3774156.000000 3786393.000000
1.382753 0.996268 0.009269 3772262.000000 3786393.000000
1.482753 0.995844 0.010325 3770656.000000 3786393.000000
1.582753 0.995444 0.011319 3769144.000000 3786393.000000
1.682753 0.994809 0.012902 3766738.000000 3786393.000000
1.782753 0.994021 0.014865 3763756.000000 3786393.000000
1.882753 0.992895 0.017676 3759491.000000 3786393.000000
1.982753 0.991142 0.022056 3752854.000000 3786393.000000
2.082753 0.988937 0.027578 3744503.000000 3786393.000000
2.182753 0.985880 0.035251 3732931.000000 3786393.000000
2.282753 0.982645 0.043399 3720681.000000 3786393.000000
2.382753 0.978896 0.052876 3706485.000000 3786393.000000
2.482753 0.974950 0.062889 3691543.000000 3786393.000000
2.582753 0.970835 0.073373 3675964.000000 3786393.000000
2.682753 0.966035 0.085662 3657787.000000 3786393.000000
2.782753 0.960184 0.100721 3635634.000000 3786393.000000
2.882753 0.952222 0.121362 3605488.000000 3786393.000000
2.982753 0.940681 0.151590 3561789.000000 3786393.000000
3.082753 0.924334 0.195050 3499890.000000 3786393.000000
3.182753 0.901764 0.256330 3414433.000000 3786393.000000
3.282753 0.873441 0.335441 3307189.000000 3786393.000000
3.382753 0.839499 0.433693 3178674.000000 3786393.000000
3.482753 0.801264 0.549248 3033902.000000 3786393.000000
3.582753 0.759782 0.681028 2876834.000000 3786393.000000
3.682753 0.717407 0.823291 2716385.000000 3786393.000000
3.782753 0.673357 0.980376 2549595.000000 3786393.000000
3.882753 0.629321 1.148040 2382856.000000 3786393.000000
3.982753 0.586547 1.322531 2220896.000000 3786393.000000
4.082753 0.546961 1.495749 2071008.000000 3786393.000000
4.182753 0.509839 1.669976 1930450.000000 3786393.000000
4.282753 0.476435 1.837957 1803971.000000 3786393.000000
4.382753 0.447324 1.994250 1693746.000000 3786393.000000
4.482753 0.423381 2.130622 1603086.000000 3786393.000000
4.582753 0.403688 2.248696 1528520.000000 3786393.000000
4.682753 0.388414 2.344309 1470688.000000 3786393.000000
4.782753 0.377637 2.414063 1429882.000000 3786393.000000
4.882753 0.370520 2.461226 1402935.000000 3786393.000000
4.982753 0.367383 2.482305 1391056.000000 3786393.000000
5.082753 0.368588 2.474189 1395618.000000 3786393.000000
5.182753 0.374221 2.436588 1416948.000000 3786393.000000
5.282753 0.383793 2.373975 1453193.000000 3786393.000000
5.382753 0.397373 2.287779 1504611.000000 3786393.000000
5.482753 0.414969 2.180373 1571234.000000 3786393.000000
5.582753 0.436387 2.055613 1652334.000000 3786393.000000
5.682753 0.460311 1.923305 1742919.000000 3786393.000000
5.782753 0.486136 1.787989 1840702.000000 3786393.000000
5.882753 0.512875 1.655257 1941946.000000 3786393.000000
5.982753 0.539168 1.531321 2041502.000000 3786393.000000
6.082753 0.564130 1.419132 2136016.000000 3786393.000000
6.182753 0.584176 1.332571 2211920.000000 3786393.000000
6.282753 0.597691 1.275874 2263092.000000 3786393.000000
6.382753 0.604986 1.245799 2290715.000000 3786393.000000
6.482753 0.607639 1.234952 2300761.000000 3786393.000000
6.582753 0.605496 1.243713 2292644.000000 3786393.000000
6.682753 0.599227 1.269512 2268908.000000 3786393.000000
6.782753 0.591001 1.303776 2237763.000000 3786393.000000
6.882753 0.581245 1.345040 2200822.000000 3786393.000000
6.982753 0.570630 1.390730 2160630.000000 3786393.000000
7.082753 0.559658 1.438861 2119084.000000 3786393.000000
7.182753 0.548104 1.490572 2075338.000000 3786393.000000
7.282753 0.536782 1.542317 2032467.000000 3786393.000000
7.382753 0.526089 1.592196 1991980.000000 3786393.000000
7.482753 0.515900 1.640680 1953399.000000 3786393.000000
7.582753 0.507155 1.683057 1920290.000000 3786393.000000
7.682753 0.499785 1.719346 1892384.000000 3786393.000000
7.782753 0.493249 1.751983 1867633.000000 3786393.000000
7.882753 0.488092 1.778035 1848108.000000 3786393.000000
7.982753 0.484225 1.797754 1833466.000000 3786393.000000
8.082753 0.482283 1.807715 1826113.000000 3786393.000000
8.182753 0.482517 1.806513 1826999.000000 3786393.000000
8.282753 0.484406 1.796826 1834152.000000 3786393.000000
8.382753 0.489453 1.771130 1853263.000000 3786393.000000
8.482753 0.495880 1.738791 1877598.000000 3786393.000000
8.582753 0.503830 1.699365 1907699.000000 3786393.000000
8.682753 0.511420 1.662300 1936437.000000 3786393.000000
8.782753 0.519074 1.625475 1965417.000000 3786393.000000
8.882753 0.526022 1.592512 1991726.000000 3786393.000000
8.982753 0.532163 1.563741 2014977.000000 3786393.000000
9.082753 0.537211 1.540335 2034092.000000 3786393.000000
9.182753 0.540908 1.523336 2048089.000000 3786393.000000
9.282753 0.543492 1.511518 2057876.000000 3786393.000000
9.382753 0.545843 1.500820 2066776.000000 3786393.000000
9.482753 0.546570 1.497520 2069529.000000 3786393.000000
9.582753 0.546417 1.498213 2068951.000000 3786393.000000
9.682753 0.544748 1.505799 2062629.000000 3786393.000000
9.782753 0.542428 1.516377 2053846.000000 3786393.000000
9.882753 0.540954 1.523124 2048264.000000 3786393.000000
9.982753 0.539411 1.530204 2042422.000000 3786393.000000
10.082753 0.538326 1.535198 2038312.000000 3786393.000000
10.182753 0.536416 1.544005 2031083.000000 3786393.000000
10.282753 0.533947 1.555442 2021734.000000 3786393.000000
10.382753 0.531916 1.564889 2014044.000000 3786393.000000
10.482753 0.530207 1.572867 2007573.000000 3786393.000000
10.582753 0.528156 1.582475 1999807.000000 3786393.000000
10.682753 0.527818 1.584062 1998527.000000 3786393.000000
10.782753 0.528091 1.582782 1999559.000000 3786393.000000
10.882753 0.527756 1.584352 1998293.000000 3786393.000000
10.982753 0.527372 1.586160 1996836.000000 3786393.000000
11.082753 0.527835 1.583985 1998589.000000 3786393.000000
11.182753 0.528300 1.581798 2000353.000000 3786393.000000
11.282753 0.529356 1.576852 2004348.000000 3786393.000000
11.382753 0.530069 1.573515 2007048.000000 3786393.000000
11.482753 0.531314 1.567696 2011765.000000 3786393.000000
11.582753 0.533060 1.559564 2018375.000000 3786393.000000
11.682753 0.536330 1.544402 2030758.000000 3786393.000000
11.782753 0.538904 1.532536 2040502.000000 3786393.000000
11.882753 0.541126 1.522335 2048916.000000 3786393.000000
11.982753 0.543037 1.513597 2056151.000000 3786393.000000
12.082753 0.543845 1.509909 2059212.000000 3786393.000000
12.182753 0.543584 1.511100 2058223.000000 3786393.000000
12.282753 0.543810 1.510068 2059080.000000 3786393.000000
12.382753 0.543499 1.511488 2057901.000000 3786393.000000
12.482753 0.544099 1.508754 2060172.000000 3786393.000000
12.582753 0.543569 1.511169 2058166.000000 3786393.000000
12.682753 0.542594 1.515619 2054474.000000 3786393.000000
12.782753 0.541802 1.519240 2051476.000000 3786393.000000
12.882753 0.542092 1.517914 2052573.000000 3786393.000000
12.982753 0.542385 1.516573 2053684.000000 3786393.000000
13.082753 0.542583 1.515669 2054433.000000 3786393.000000
13.182753 0.543237 1.512682 2056910.000000 3786393.000000
13.282753 0.544401 1.507376 2061317.000000 3786393.000000
13.382753 0.545143 1.504000 2064126.000000 3786393.000000
13.482753 0.545654 1.501676 2066062.000000 3786393.000000
13.582753 0.546192 1.499234 2068099.000000 3786393.000000
13.682753 0.547142 1.494927 2071695.000000 3786393.000000
13.782753 0.547844 1.491748 2074353.000000 3786393.000000
13.882753 0.549065 1.486230 2078976.000000 3786393.000000
13.982753 0.551551 1.475032 2088388.000000 3786393.000000
14.082753 0.554626 1.461248 2100033.000000 3786393.000000
14.182753 0.557351 1.449100 2110349.000000 3786393.000000
14.282753 0.561077 1.432583 2124457.000000 3786393.000000
14.382753 0.565274 1.414110 2140348.000000 3786393.000000
14.482753 0.569798 1.394345 2157481.000000 3786393.000000
14.582753 0.574988 1.371868 2177132.000000 3786393.000000
14.682753 0.581004 1.346066 2199911.000000 3786393.000000
14.782753 0.586886 1.321097 2222181.000000 3786393.000000
14.882753 0.592161 1.298914 2242156.000000 3786393.000000
14.982753 0.597944 1.274823 2264052.000000 3786393.000000
15.082753 0.604036 1.249696 2287117.000000 3786393.000000
15.182753 0.610587 1.222954 2311923.000000 3786393.000000
15.282753 0.618743 1.190062 2342803.000000 3786393.000000
15.382753 0.628039 1.153095 2378002.000000 3786393.000000
15.482753 0.638921 1.110508 2419207.000000 3786393.000000
15.582753 0.650385 1.066424 2462614.000000 3786393.000000
15.682753 0.662911 1.019134 2510043.000000 3786393.000000
15.782753 0.676201 0.969930 2560362.000000 3786393.000000
15.882753 0.690342 0.918621 2613908.000000 3786393.000000
15.982753 0.706006 0.863003 2673216.000000 3786393.000000
16.082753 0.722536 0.805632 2735805.000000 3786393.000000
16.182753 0.740062 0.746218 2802167.000000 3786393.000000
16.282753 0.758456 0.685360 2871811.000000 3786393.000000
16.382753 0.777844 0.622787 2945223.000000 3786393.000000
16.482753 0.796122 0.565210 3014430.000000 3786393.000000
16.582753 0.814531 0.508539 3084136.000000 3786393.000000
16.682753 0.832387 0.454783 3151746.000000 3786393.000000
16.782753 0.849852 0.403308 3217875.000000 3786393.000000
16.882753 0.866277 0.355854 3280067.000000 3786393.000000
16.982753 0.881709 0.312083 3338498.000000 3786393.000000
17.082753 0.896006 0.272210 3392631.000000 3786393.000000
17.182753 0.909205 0.235959 3442607.000000 3786393.000000
17.282753 0.921417 0.202886 3488845.000000 3786393.000000
17.382753 0.933170 0.171464 3533349.000000 3786393.000000
17.482753 0.943252 0.144826 3571521.000000 3786393.000000
17.582753 0.952390 0.120924 3606124.000000 3786393.000000
17.682753 0.960996 0.098625 3638709.000000 3786393.000000
17.782753 0.968068 0.080449 3665486.000000 3786393.000000
17.882753 0.974282 0.064588 3689015.000000 3786393.000000
17.982753 0.979516 0.051305 3708834.000000 3786393.000000
18.082753 0.983731 0.040663 3724791.000000 3786393.000000
18.182753 0.987414 0.031399 3738736.000000 3786393.000000
18.282753 0.990399 0.023917 3750038.000000 3786393.000000
18.382753 0.992694 0.018178 3758729.000000 3786393.000000
